index,id,x,sin(x)
0,1,78.030942656548,0.487193950639
1,3,-73.858541188930,0.999516003852
2,5,-92.048100699488,0.808685325018
3,8,65.287226354916,0.633616844650
4,10,6.415583312871,0.132011538680
5,12,91.261994913013,-0.155178321533
6,14,-7.614738402678,-0.971517582601
7,17,84.747631040084,0.075299267116
8,19,-25.215764541696,-0.082927967686
9,22,-69.005328852051,0.109489578725
10,24,78.468745329777,0.071011194084
11,27,-94.642054477646,-0.384138795155
12,29,-41.699522267636,0.757070702954
13,32,-20.251192799469,-0.985726625138
14,35,61.457741600401,-0.980719808643
15,38,25.418864547108,0.282235279262
16,40,81.584979491765,-0.096280127024
17,44,11.279460409292,-0.959974232431
18,45,67.983850741975,-0.904918268406
19,48,-89.902408620171,-0.933401538512
20,51,61.246969021972,-0.999900769671
21,53,86.163138585047,-0.973515857548
22,56,-27.194082901459,-0.882076073499
23,59,38.189584264792,0.471042668840
24,61,-74.137086074816,0.952437626220
25,63,66.537279576514,-0.534430536135
26,65,-36.329253670107,0.979879764182
27,67,47.440451647941,-0.311301088456
28,70,19.353928686624,0.483258405202
29,74,-27.258631206541,-0.849851087761
30,75,58.994113003223,0.641266294110
31,77,39.696228774282,0.910493426046
32,79,64.375785920011,0.999639198458
33,82,79.893178400801,-0.976454155776
34,84,66.379860811483,-0.395318974455
35,86,81.991543179669,0.305186423848
36,88,94.982717959041,0.670541421497
37,90,31.223917242696,-0.190831646846
38,92,62.397912745135,-0.420449178938
39,95,-79.451202753546,0.790353886226
40,99,-52.494308407495,-0.791198768371
41,102,-24.130957457227,0.842433421434
42,105,39.847210925547,0.837937759893
43,108,-3.010950326176,-0.130271023220
44,111,-16.955553404104,0.948221980545
45,112,27.732360701017,0.515827404399
46,115,51.857998942402,0.999764126638
47,116,11.504578611784,-0.873230141220
48,119,38.691075738031,0.837101934929
49,121,82.651824419296,0.825120482254
50,124,-95.077435135308,-0.737698851270
51,125,67.475663273024,-0.997649396991
52,128,-23.358952823616,0.979467757497
53,131,-40.245794927321,-0.560433862197
54,132,-98.740581348096,0.975987442659
55,135,-12.488514364223,0.077777618453
56,139,47.587456064747,-0.447140834067
57,141,-24.847910768476,0.280994746451
58,144,-1.350106725069,-0.975746725773
59,146,-97.192069799123,-0.196024844494
60,149,-50.112640606992,0.152247464780
61,152,-30.572951942892,0.746625252922
62,154,59.337335525471,0.345643901217
63,157,87.679872856839,-0.280890120567
64,160,-79.895586095478,0.976970724994
65,162,47.080530863609,0.043345355730
66,165,95.287423804384,0.862224057816
67,168,41.177151146044,-0.330135055960
68,170,90.352934877073,0.684014659889
69,172,85.569506447485,-0.679077203118
70,175,-17.993813292663,0.755058034832
71,179,-32.381004211706,-0.822093143846
72,181,53.821674052236,-0.402822882524
73,184,-33.070354456351,-0.996504916106
74,187,-83.462667953971,-0.977934369459
75,190,79.711643477233,-0.921461921177
76,194,57.466954376780,0.794562447834
77,196,43.493109186776,-0.469909246581
78,198,-11.201961594859,0.978777632244
79,201,50.178407734032,-0.086964731578
80,203,31.579665883694,0.163008670328
81,205,-27.860542874167,-0.402083267810
82,208,-24.335404520273,0.715498015853
83,211,29.926384832750,-0.996700658941
84,213,-88.872635161158,-0.788299811860
85,215,-84.348142775770,-0.457212937770
86,218,-81.619401731222,0.061967534458
87,220,61.021005611567,-0.971325819031
88,222,-86.938508383424,0.855277383770
89,225,-55.136125101106,0.987504001099
90,227,-69.573437898944,-0.442513424854
91,230,36.118179502983,-0.999948631057
92,232,-74.808224111218,0.556360669711
93,234,-48.528376922481,0.986202469542
94,236,-12.406472717071,0.159217407201
95,239,-78.066477742478,-0.455860343314
96,241,-37.086791669202,0.574767642381
97,243,-29.853626395279,0.999963907627
98,246,52.228572866791,0.924034443198
99,248,-80.229763219007,0.992909966895
100,250,86.292065316615,-0.994829694735
101,252,-34.784185313876,0.224730179947
102,255,-14.672868902469,-0.859910528669
103,258,-45.863808501222,-0.952115202161
104,259,57.621954062159,0.878773595739
105,262,-9.335206750975,-0.089451486172
106,263,-83.352841358197,-0.994940466167
107,267,-85.924646311597,0.891952167919
108,269,-34.050149161026,-0.485880268015
109,274,-61.578977732844,0.949887353880
110,277,67.573056263435,-0.999584899336
111,280,-87.662928213718,0.297111469276
112,281,10.846943263903,-0.988974728614
113,285,14.122232303130,0.999888480366
114,286,-7.577944266586,-0.962142985894
115,288,89.765764491617,0.973581094301
116,291,-31.045213544172,0.362280081677
117,293,76.889815577921,0.996864968177
118,295,-13.791971808190,-0.941009441370
119,298,98.895968100500,-0.997939856451
120,299,60.100692088087,-0.399005184270
121,301,88.326779637294,0.354318640221
122,304,-24.104077132784,0.856610475820
123,305,-18.915037039318,-0.065434333074
124,308,-42.622491223028,0.977823976493
125,312,-9.893187743540,0.451467926096
126,314,53.022220656991,0.375424240998
127,316,15.979832376560,-0.268532362200
128,320,-24.375379406968,0.687006803290
129,322,24.478658451040,-0.608431585928
130,325,47.834540133582,-0.652326818425
131,327,82.676582132921,0.838853228602
132,329,6.420720447520,0.137101949753
133,331,3.564269035912,-0.410202764843
134,333,-79.482591118207,0.809191520561
135,337,-75.666044307204,-0.264630382901
136,340,28.739333060342,-0.448422066754
137,342,-10.807109768084,0.982293066522
138,345,-84.735003915179,-0.087884205825
139,347,-69.486155632641,-0.362656852199
140,350,-84.098405748942,-0.662832918401
141,352,75.874272576112,0.458270965637
142,354,-67.705230863556,0.987069265117
143,356,84.590120434577,0.230781913030
144,359,-99.284150443165,0.947975337798
145,361,60.520383569779,-0.738014477526
146,364,-39.293354782737,-0.999725140765
147,366,-51.049152874147,-0.705884025000
148,368,53.642172806617,-0.232937994764
149,371,40.696376348435,0.143827595858
150,373,77.235253708560,0.964768650211
151,375,82.628320282917,0.811614976985
152,378,-54.937875025008,0.999200250104
153,382,-15.703297962228,-0.004665288798
154,384,-66.827550148655,0.753982919581
155,387,-57.833046655558,-0.959262166099
156,389,67.979656246231,-0.906695418834
157,391,83.090093636640,0.986888652875
158,393,36.318293216278,-0.982008446427
159,397,-18.148625987607,0.644928661286
160,399,-55.574334297306,0.827327667483
161,403,67.060001940546,-0.885028959964
162,406,55.347378057131,-0.932505646195
163,408,47.469101167009,-0.338395578375
164,410,71.740443147901,0.493568308671
165,413,94.502285992342,0.251767724466
166,415,-18.008112262987,0.745605932079
167,417,19.402793784604,0.525444841909
168,420,47.688399460199,-0.535001613006
169,421,-46.658090232195,-0.449137332414
170,424,52.626611892745,0.703608651884
171,427,86.100560345803,-0.957313047959
172,430,74.937724321578,-0.444395508471
173,431,-76.767322521037,-0.979727926401
174,435,93.457846470712,-0.710306209608
175,437,-39.402511559633,-0.991221045674
176,440,21.803164895777,0.186878476995
177,442,-66.448591003755,0.457467637349
178,444,71.685189425748,0.540845177759
179,447,45.278457552200,0.962523997332
180,449,-86.976491053750,0.834983746083
181,451,3.619706924729,-0.460105723570
182,453,19.097125902554,0.245048755533
183,455,-8.415590126587,-0.846399606277
184,457,18.448350632907,-0.390528203527
185,460,-36.108948487855,0.999812464967
186,461,63.966350819428,0.906322043056
187,463,-81.452209749004,0.227197781642
188,465,-64.625997540114,-0.975161317108
189,468,-55.857509234446,0.637430266622
190,470,-5.181345912869,0.892040194074
191,472,83.490367922662,0.971773089178
192,475,98.307142879328,-0.794249039503
193,477,20.842863527299,0.912062061934
194,480,84.111509647316,0.652964520712
195,482,-26.672806161285,-0.999527827867
196,484,-98.439618187855,0.867545565304
197,486,31.003323358338,-0.400995403040
198,489,-66.389371443078,0.404036896875
199,491,-0.708378545554,-0.650603265452
200,493,58.160788046519,0.999146286866
201,495,63.592167262831,0.689149148079
202,497,-26.647312173971,-0.998419769599
203,501,-74.251450047241,0.911441263903
204,503,-60.576636792574,0.774785897237
205,505,-95.820862611730,-0.999997385555
206,507,26.708792781209,0.999986191333
207,509,-4.276389840467,0.906448541760
208,512,-57.511454554028,-0.820786664658
209,517,-46.904331986865,-0.217798076481
210,520,-62.228165434643,0.567682165586
211,523,77.962048699582,0.546155287199
212,526,43.228649281088,-0.684303324108
213,528,-86.285386715960,0.994129252884
214,531,-50.872323919915,-0.570275717822
215,533,84.071076085029,0.683046407672
216,535,-59.019002540881,-0.621971446998
217,537,-6.823690434319,-0.514569177975
218,539,52.614211681377,0.712365769036
219,542,6.473253490163,0.188925850516
220,544,10.204423976651,-0.703027723041
221,546,-52.973871945905,-0.419780226235
222,548,-44.804142315307,-0.732403395099
223,551,-96.630784833274,-0.687896875082
224,554,-15.512589679313,-0.194133029692
225,556,-90.600392914957,-0.484502210524
226,560,-88.160075449144,-0.194238542257
227,563,-36.203221864402,0.997195831047
228,565,-11.387669170845,0.924110580588
229,567,-66.283642469914,0.305245996957
230,569,-39.734495137568,-0.894006702464
231,572,-10.119351595583,0.640057909975
232,574,-5.383744406419,0.782979245554
233,576,40.844180999322,-0.003476495652
234,579,40.128004133568,0.653879244387
235,580,18.729905739153,-0.119364898023
236,584,94.586965266173,0.332719257381
237,587,32.435600237379,0.851937203055
238,589,75.562981126127,0.164013060497
239,591,-17.132934932943,0.989386412033
240,594,59.614964890281,0.075224401139
241,595,-72.404429934851,0.147261390471
242,598,-47.774742249844,0.605864804218
243,601,-54.640585260322,0.943656217579
244,604,6.490400815200,0.205735775992
245,605,38.943112266040,0.947075750636
246,607,-51.204588610598,-0.807030597710
247,610,-60.980117655485,0.960795491885
248,612,58.028478098517,0.995863629292
249,614,-18.923962311832,-0.074337753145
250,617,-12.983813318233,-0.405424083467
251,618,25.276751989132,0.143513500757
252,623,35.763428728909,-0.934164166345
253,626,-13.709292989057,-0.909849982005
254,629,-40.964452255186,0.123432164882
255,632,99.456958903703,-0.879116843452
256,635,-60.545020480873,0.754413443097
257,636,11.591946492605,-0.827378586463
258,639,-5.377461974279,0.786871741483
259,641,-82.248741617688,-0.537384465528
260,643,-37.495968649006,0.201748883787
261,646,19.735743559301,0.774666559683
262,648,-90.154342083373,-0.814487250038
263,649,-26.403432787326,-0.955305522766
264,653,-74.353569522632,0.864750910238
265,655,-94.801445283378,-0.525808788626
266,657,46.423114311015,0.644810623099
267,658,-47.361263577397,0.235150856154
268,661,42.295914722355,-0.993327360534
269,663,35.486942987119,-0.801275334474
270,665,64.128718517081,0.962714963391
271,668,58.201136541996,0.996666658916
272,671,21.151972702709,0.744092792634
273,673,0.800619167438,0.717787331475
274,675,-13.860258583572,-0.961905236794
275,677,-79.831703173951,0.961356234687
276,679,-2.694920647513,-0.431966448421
277,681,-19.921043703199,-0.877913853195
278,684,17.434280221004,-0.987931022543
279,687,-11.168217093919,0.985134209373
280,689,-53.215313758803,-0.190588256471
281,692,26.842333361604,0.990383315193
282,695,-54.153517934957,0.679031706824
283,698,-49.709778425005,0.527541527035
284,700,95.714112266584,0.994548631160
285,702,-10.679465760793,0.950452354948
286,704,-83.822441551395,-0.841773473711
287,708,-76.040506390279,-0.599024831153
288,711,-7.444352889389,-0.917268745481
289,713,55.697169741502,-0.752268231814
290,715,-20.301128985241,-0.992901321243
291,718,24.896426888475,-0.234120998763
292,722,59.688985971571,0.001274446290
293,724,-1.090040687688,-0.886645731176
294,726,-92.523924560236,0.988309363790
295,728,43.841265567445,-0.140564530017
296,731,38.668504264178,0.824542097039
297,733,-36.907691578040,0.711352202530
298,735,67.315296712009,-0.973906292188
299,736,-91.920314022020,0.727126604882
300,738,25.920484927301,0.708763378415
301,741,-95.650548636982,-0.985916595407
302,743,48.353558419960,-0.942377989187
303,746,-20.606798646174,-0.982669162670
304,748,3.916326783270,-0.699526107269
305,751,-7.159656523143,-0.768485716042
306,754,34.822972086190,-0.262346328485
307,755,70.070468349841,0.816562019918
308,758,-36.790044049419,0.788931259050
309,760,-36.834920981484,0.760570174913
310,762,-66.527918383512,0.526495038865
311,764,36.908970339325,-0.710452862059
312,767,63.646364348074,0.727390311550
313,770,-63.439343164446,-0.570808417249
314,773,-93.103123218758,0.910568121058
315,776,1.987780696321,0.914314441472
316,779,55.659095383022,-0.776802528321
317,781,23.312115019257,-0.968954495392
318,783,88.037860541926,0.073200710846
319,787,-54.407826363632,0.841876650830
320,790,56.581498034635,0.032824372780
321,793,-17.724665099928,0.902220513564
322,796,38.859177269514,0.916829234172
323,799,-49.840128691811,0.412643050123
324,802,1.465464788112,0.994457760462
325,803,-43.808046391018,0.173370291532
326,806,-56.289496520517,0.256279562301
327,810,84.752724901118,0.070218912711
328,812,55.640395090938,-0.788442423225
329,814,-48.148519299797,0.854521802574
330,817,-54.575012209571,0.919943794675
331,819,58.680919291258,0.846481232136
332,822,-64.591931838489,-0.982139499900
333,825,-41.173111125993,0.326318861038
334,828,63.433622304843,0.566101799960
335,831,-10.759868568432,0.972349777421
336,834,69.969055778630,0.753925751433
337,836,87.916532363902,-0.048043435306
338,839,-60.574582869789,0.773485725223
339,842,85.184399626300,-0.353582253074
340,844,-19.767734112807,-0.794496611900
341,847,-6.382485233396,-0.099136815909
342,849,-55.034526760501,0.998395516451
343,851,42.720745519474,-0.952563710223
344,853,28.132413889640,0.141444063724
345,856,82.632985757842,0.814331670508
346,858,-0.911416670262,-0.790372422502
347,861,-52.308188921355,-0.890701587317
348,863,36.053747781178,-0.997221114429
349,864,29.595216387898,-0.968933739088
350,867,53.716580114129,-0.304587196928
351,869,23.545309947416,-0.999861642335
352,872,41.419110459610,-0.546689888644
353,875,34.056182237350,0.480598395665
354,876,-3.282129367523,0.140074557242
355,880,82.801754234355,0.900250803984
356,882,-94.431230162198,-0.182423307184
357,884,80.677201791424,-0.843736691758
358,888,-10.809234772443,0.982688969699
359,889,8.909101604390,0.493123364369
360,892,-96.095446793692,-0.961915487540
361,893,72.574622054289,-0.312658933771
362,896,26.955692703993,0.968376979721
363,899,-0.042947585372,-0.042934383821
364,901,-23.146831074629,0.915070420547
365,903,-99.174531798712,0.977112053489
366,905,47.117833507462,0.006056259362
367,908,-49.664708071519,0.565281432308
368,911,94.375377353791,0.127251787434
369,914,-81.551663921665,0.129381361192
370,917,-6.955102042256,-0.622487223886
371,919,26.399794926498,0.954223778386
372,923,-22.630392798034,0.596589065260
373,927,-68.424716538077,0.636785367761
374,930,-4.261035159564,0.899857411953
375,932,7.630184289440,0.975061722129
376,935,90.373441736339,0.668912785605
377,936,36.846021075974,-0.753316667660
378,940,-8.443841835373,-0.831018449473
379,942,-7.461057456177,-0.923793368559
380,946,-64.144494631181,-0.966862706056
381,948,96.982225157798,0.395991258592
382,950,99.751802811418,-0.702683500397
383,954,30.750854190927,-0.617116060585
384,956,62.221192508782,-0.573408764242
385,959,-34.935408784726,0.368959786594
386,960,-87.669718120677,0.290621376498
387,965,-72.140045521863,-0.116321581568
388,966,-59.466272492076,-0.222119684393
389,969,-91.998582947234,0.778577582476
390,971,40.915152642601,-0.074379393187
391,973,-60.374281388628,0.631914529276
392,975,-49.109952387579,0.915008935942
393,978,70.326321359461,0.936068148402
394,981,31.470668198966,0.054714326900
395,983,61.249877776305,-0.999937515980
396,986,-36.931774735909,0.694221053565
397,988,61.494645435838,-0.972841986139
398,990,77.057637709838,0.996076020857
399,993,37.106130208593,-0.558836107562
400,994,59.367828626137,0.316873971390
401,997,75.031416308659,-0.358637024814
402,1000,-36.485201675860,0.936989210428
403,1003,69.868804021446,0.684389199357
404,1005,60.975072403235,-0.959384432758
405,1008,14.262205246822,0.992192890752
406,1011,-78.751927448506,0.210524163415
407,1013,50.995349300732,0.666770404124
408,1014,41.529327315086,-0.635474433114
409,1017,-64.046695258495,-0.937314412156
410,1020,70.193676148389,0.881314930858
411,1023,64.921784058944,0.868248824790
412,1026,82.433539342433,0.683195964797
413,1029,71.154413648437,0.892210965138
414,1030,-57.001042468459,-0.437102600863
415,1034,-32.463050555404,-0.865988635598
416,1037,-92.112878048455,0.845067334968
417,1039,-52.984029811730,-0.410539187117
418,1041,-75.025609848234,0.364051146457
419,1043,-44.512875127524,-0.506031939611
420,1046,-12.255845877802,0.305558318661
421,1050,71.986150812735,0.267194227811
422,1052,-35.415719966730,0.756667456543
423,1054,97.509422750238,-0.119762333007
424,1056,93.056769353737,-0.928743964289
425,1059,39.052094510785,0.976372240868
426,1062,34.056217835218,0.480567178137
427,1065,-92.773896759261,0.995307563282
428,1067,57.091320312992,0.516409294022
429,1069,5.770813275515,-0.490246049177
430,1072,34.588582239391,-0.031058054621
431,1074,-14.726612261076,-0.831249153632
432,1078,-92.004534571337,0.782298703110
433,1079,29.071528264857,-0.715398577634
434,1082,13.735352963578,0.920353082868
435,1083,40.986522200595,-0.145301504180
436,1086,40.748637642133,0.091936845180
437,1090,-54.827084703095,0.988653203779
438,1092,96.936470877001,0.437576242741
439,1096,-76.378474771615,-0.830637204574
440,1099,-58.906186196733,-0.706169993431
441,1101,90.624927652535,0.462895803191
442,1103,86.916373745352,-0.866536452514
443,1106,-32.240411734278,-0.734198362702
444,1109,86.060062716298,-0.944825362563
445,1111,-79.233802077981,0.639606102771
446,1113,-74.818954242290,0.547412707682
447,1116,-11.751950296457,0.727327890724
448,1119,24.640099928454,-0.472954749822
449,1122,21.560226168326,0.417709061157
450,1123,-65.996479597312,0.023031835175
451,1126,-33.423889412980,-0.905954907791
452,1129,-70.183908871484,-0.876657640916
453,1131,91.640783000521,-0.509493489245
454,1133,-87.077917555963,0.774975763433
455,1138,-76.588065902643,-0.928310313893
456,1140,-7.863941389562,-0.999950402044
457,1142,-25.550964579961,-0.406137572038
458,1145,90.398456251951,0.650111145148
459,1147,15.997575718173,-0.285580836440
460,1149,-73.189333657685,0.803232732467
461,1151,-88.471981976130,-0.485895691999
462,1154,31.035520816357,-0.371297216264
463,1158,42.134610379123,-0.961910133817
464,1160,-19.052314172231,-0.201371840952
465,1163,32.050682159531,0.592980756149
466,1166,68.928666243038,-0.185295082096
467,1167,97.675428303588,-0.282170737634
468,1171,91.025516310113,0.080583175022
469,1173,46.733270365805,0.380761266003
470,1176,-41.165944211888,0.319535942983
471,1179,41.025245964844,-0.183495806655
472,1180,0.145024106399,0.144516283093
473,1183,-32.941637838451,-0.998983842437
474,1185,4.726093561538,-0.999906093697
475,1188,79.244366362147,-0.647691055803
476,1192,87.402200779491,-0.533212597338
477,1194,-10.824703882657,0.985437136440
478,1197,45.228859247199,0.947894965674
479,1200,61.392689286744,-0.991348939308
480,1202,-60.800895938055,0.895981096001
481,1204,9.256792924492,0.167196089413
482,1206,-70.188500002825,-0.878857254766
483,1209,-62.530888242330,0.296441805764
484,1212,-23.340494988895,0.975580009679
485,1214,-88.575546193459,-0.573647417610
486,1217,35.657189784014,-0.891057894667
487,1219,77.529515481890,0.846991820765
488,1222,-31.221824573172,0.192885439573
489,1224,-48.519541145087,0.984701285390
490,1226,-76.084240736149,-0.633460307052
491,1229,-19.627570082239,-0.701866273375
492,1232,-32.644520345898,-0.942017868512
493,1234,-83.712927635777,-0.895731593136
494,1237,26.025290725963,0.778673904559
495,1238,12.543659886923,-0.022708775207
496,1242,-84.806917796387,-0.016083157090
497,1244,-85.042645363598,0.217881913248
498,1246,78.582138201508,-0.042309228832
499,1249,-97.809968982981,0.408305240413
500,1251,26.351367134094,0.938626268121
501,1254,-29.974194374585,0.991682775604
